t (s),V (mV)
0,13.4944
1,13.4817
2,13.4692
3,13.4556
4,13.4418
4.999,13.4272
5.999,13.4109
7,13.3953
8,13.3789
8.999,13.3614
10,13.3443
11,13.3274
11.999,13.3099
12.999,13.2932
14,13.2766
14.999,13.2582
16,13.241
17,13.2227
17.999,13.2055
18.999,13.188
19.999,13.1693
20.999,13.151
21.999,13.1349
23.004,13.1186
24,13.1009
24.999,13.0835
26,13.066
26.999,13.0484
27.999,13.0299
29,13.0123
29.999,12.9952
30.999,12.9782
32,12.9613
33,12.9423
33.999,12.926
35,12.9086
35.999,12.8902
36.999,12.8733
38,12.8563
38.999,12.838
40,12.8211
40.999,12.8033
42,12.7864
42.999,12.7681
43.999,12.7525
44.999,12.7342
45.999,12.7181
47.004,12.7003
48,12.6842
49,12.6656
50,12.6473
50.999,12.6307
52,12.6142
53.004,12.597
54,12.5809
54.999,12.5625
55.999,12.5454
57,12.5298
57.999,12.5138
59,12.4969
59.999,12.4807
60.999,12.4638
61.999,12.447
63,12.43
63.999,12.4138
65.004,12.3929
65.999,12.3781
67,12.3633
67.999,12.3472
69,12.3307
69.999,12.314
71,12.2982
71.999,12.2815
72.999,12.2647
74,12.2493
75,12.2325
75.999,12.216
77.004,12.2011
77.999,12.1844
79,12.1683
79.999,12.1512
80.999,12.1355
81.999,12.1187
83.005,12.1039
84,12.0881
84.999,12.0581
86,12.0233
86.999,12.0071
88,11.9908
88.999,11.9761
90,11.9596
90.999,11.9441
92,11.9277
93,11.9126
94,11.898
95,11.883
95.999,11.8673
96.999,11.8515
97.999,11.8356
98.999,11.8204
100,11.8034
100.999,11.7888
101.999,11.7743
102.999,11.7591
103.999,11.7426
104.999,11.7274
105.999,11.7125
107.005,11.699
107.999,11.6828
108.999,11.6659
109.999,11.6511
111,11.6356
111.999,11.6204
113.004,11.6071
113.999,11.5909
114.999,11.5756
115.999,11.5602
117,11.5461
117.999,11.5308
118.999,11.5155
119.999,11.5009
121,11.4844
121.999,11.4701
123,11.4558
123.999,11.4407
125.004,11.427
125.999,11.4117
127,11.3964
127.999,11.3843
129,11.3654
129.999,11.3515
131.004,11.3354
132,11.3228
132.999,11.3079
134,11.2934
135,11.2795
135.999,11.2633
137,11.2505
137.999,11.2344
139,11.2186
140,11.2048
140.999,11.1888
141.999,11.1748
142.999,11.1611
144,11.146
145.001,11.1319
146,11.1168
146.999,11.1018
148,11.0887
149.005,11.0722
150,11.0596
150.999,11.044
152,11.0308
152.999,11.017
153.999,11.0023
155.004,10.9862
156,10.974
156.999,10.9606
158,10.9445
158.999,10.9315
159.999,10.9163
160.999,10.902
161.999,10.8885
163,10.8742
164,10.8598
164.999,10.846
165.999,10.8317
167,10.8168
168,10.8039
168.999,10.7893
170,10.7759
170.999,10.7618
172,10.7473
173,10.734
173.999,10.7203
174.999,10.7068
176,10.6926
176.999,10.6795
177.999,10.6664
179.004,10.6505
180,10.6383
180.999,10.6247
181.999,10.612
182.998,10.5983
183.998,10.5853
185.004,10.57
185.998,10.558
186.998,10.5442
187.998,10.5309
188.998,10.5179
189.998,10.5044
190.999,10.4915
191.999,10.4775
192.998,10.4653
193.998,10.4525
194.998,10.4387
195.999,10.4255
196.998,10.4124
197.998,10.399
198.998,10.3871
199.998,10.3736
200.999,10.3606
201.999,10.348
203.003,10.3339
203.998,10.3224
204.998,10.3098
205.998,10.2971
206.999,10.284
207.998,10.2712
208.998,10.2586
209.999,10.2453
210.998,10.2326
211.998,10.2194
212.999,10.2063
213.998,10.194
214.998,10.1816
215.998,10.1686
216.999,10.1562
218,10.1435
218.998,10.1303
219.998,10.1181
220.999,10.1055
221.998,10.093
222.998,10.0801
223.998,10.0665
224.998,10.0543
225.998,10.0411
226.998,10.0281
227.998,10.016
228.999,10.0027
229.999,9.9885
231,9.9762
231.999,9.9635
232.999,9.9508
233.999,9.9379
235,9.9256
235.999,9.9127
237,9.8999
237.999,9.8871
239,9.8744
239.999,9.8616
241,9.8496
241.999,9.8376
242.999,9.8251
243.999,9.8125
245,9.8002
245.999,9.7881
246.999,9.7765
247.999,9.7643
248.999,9.7507
249.999,9.738
251.004,9.7266
251.999,9.7167
253,9.7022
253.999,9.6892
254.999,9.6771
256,9.6652
256.999,9.6532
257.999,9.6409
259,9.6291
259.999,9.6155
260.999,9.6033
261.999,9.593
263,9.5802
263.999,9.5684
265,9.5558
265.999,9.5441
267,9.5325
267.999,9.5196
268.999,9.5046
269.999,9.4955
271,9.4832
271.999,9.4708
272.999,9.4588
273.999,9.4478
275.004,9.4359
276,9.4228
276.999,9.411
278,9.3992
278.999,9.3871
279.999,9.3753
281,9.3634
282,9.3501
282.999,9.3408
284,9.3285
284.999,9.3163
285.999,9.3052
287,9.2943
287.999,9.282
289,9.2721
289.999,9.2587
291,9.2472
291.999,9.2362
293,9.2236
293.999,9.2125
295,9.1999
296,9.1901
297,9.1771
298,9.1657
298.999,9.1541
299.999,9.1427
300.999,9.1308
302,9.1182
303,9.1073
303.999,9.0968
305,9.0845
305.999,9.0717
306.999,9.061
307.999,9.0501
308.999,9.0388
309.999,9.0269
311,9.0157
311.999,9.0042
313,8.9937
314,8.9837
314.999,8.9714
316,8.9583
316.999,8.9483
317.999,8.9377
319,8.9254
320,8.914
320.999,8.9033
321.999,8.8925
323,8.8803
324,8.8693
324.999,8.8585
325.999,8.8475
327,8.836
327.999,8.8258
329,8.8135
330,8.803
330.999,8.7917
331.999,8.7817
333,8.7705
333.999,8.7591
335,8.7476
335.999,8.7372
337,8.7264
337.999,8.7155
338.999,8.7052
339.999,8.6939
341.005,8.6831
341.999,8.6721
343,8.6607
344,8.6505
344.999,8.641
345.999,8.63
347.005,8.6187
347.999,8.608
349,8.5976
350,8.5858
351,8.575
352,8.5649
352.999,8.555
353.999,8.5435
355,8.5328
355.999,8.5224
356.999,8.5114
358,8.5003
359.004,8.4875
360,8.4784
360.999,8.4673
362,8.4581
362.999,8.4461
364,8.4359
365,8.4264
365.999,8.4159
367,8.4047
367.999,8.3935
368.999,8.3833
369.999,8.3727
371,8.363
372,8.3516
373,8.34
374,8.3292
374.999,8.3186
375.999,8.3083
377,8.298
377.999,8.2868
378.999,8.276
380,8.2659
380.999,8.2553
382,8.2451
383,8.2343
383.999,8.2235
385,8.2145
385.999,8.2044
387,8.1939
387.999,8.1835
389,8.1731
389.999,8.1631
391,8.1523
391.999,8.1425
393,8.1327
393.999,8.1232
395.004,8.1118
395.999,8.1024
397,8.0924
398,8.0816
399,8.0715
400,8.0611
400.999,8.0512
401.999,8.0415
402.999,8.0308
404,8.0216
404.999,8.0116
405.999,8.0018
406.999,7.9918
407.999,7.9808
408.999,7.9713
409.999,7.9608
411,7.9509
411.999,7.9414
413.004,7.9309
413.999,7.9213
414.999,7.9122
416,7.9022
416.999,7.892
417.999,7.8822
419.005,7.8711
419.999,7.8621
420.999,7.852
421.999,7.8433
423,7.8331
423.999,7.8229
424.999,7.8128
426,7.8038
426.999,7.793
428,7.7827
428.999,7.7735
429.999,7.7641
430.999,7.7539
431.999,7.7447
432.999,7.7338
434,7.7254
434.999,7.7156
435.999,7.706
436.999,7.696
437.999,7.6865
438.999,7.6772
440,7.6674
440.999,7.6573
442,7.6487
442.999,7.6388
444,7.6291
444.999,7.6185
446,7.6103
446.999,7.5994
448,7.5907
449,7.5821
449.999,7.5721
450.999,7.5627
451.999,7.5536
452.999,7.5434
454,7.5342
455,7.5245
455.999,7.5157
456.999,7.5083
458.001,7.4998
458.999,7.4881
459.999,7.4793
460.999,7.4697
462,7.4607
462.999,7.4517
463.999,7.4421
464.999,7.4332
466,7.4246
466.999,7.4144
468,7.4054
468.999,7.396
469.999,7.3872
470.999,7.3769
472,7.3685
473,7.3592
473.999,7.3505
474.999,7.3415
476,7.3322
476.999,7.3235
477.999,7.3147
478.999,7.305
479.999,7.2967
480.999,7.2866
482,7.2768
482.999,7.2695
483.999,7.2605
485.005,7.2499
485.999,7.242
486.999,7.2333
488,7.2241
488.999,7.2152
490,7.2064
490.999,7.1991
492,7.1896
492.999,7.181
493.999,7.1722
494.999,7.1634
495.999,7.1543
496.999,7.1462
498,7.137
499,7.1282
500,7.1193
500.999,7.1109
502,7.1027
503,7.0938
503.999,7.0845
504.999,7.0748
506,7.0669
506.999,7.0572
508,7.0479
508.999,7.0398
509.999,7.0311
510.999,7.022
511.999,7.0133
513,7.0054
513.999,6.9952
514.999,6.9882
516,6.9792
516.999,6.9698
517.999,6.9609
518.999,6.9518
519.999,6.9434
521.004,6.9331
521.999,6.9269
523,6.9175
523.999,6.9094
524.999,6.9005
525.999,6.8927
526.999,6.8836
528,6.8743
528.999,6.8659
529.999,6.858
530.999,6.8496
531.999,6.841
533.003,6.8317
533.999,6.8245
534.999,6.8166
536,6.8077
536.999,6.7995
537.999,6.7911
538.999,6.7821
539.999,6.7741
541,6.7667
541.999,6.7581
543,6.7491
544,6.7415
545.004,6.7324
545.999,6.7249
546.999,6.7169
548,6.7091
548.999,6.7009
550,6.6924
550.999,6.6848
551.999,6.6762
552.999,6.6682
553.999,6.6599
554.999,6.6515
556,6.6435
556.999,6.6353
